{
  "AcquisitionMatrixPE": 96,
  "AcquisitionNumber": 1,
  "AcquisitionTime": "16:03:16.967500",
  "BandwidthPerPixelPhaseEncode": 22.401,
  "BaseResolution": 96,
  "BodyPartExamined": "BRAIN",
  "ConsistencyInfo": "N4_VE11C_LATEST_20160120",
  "ConversionSoftware": "dcm2niix",
  "ConversionSoftwareVersion": "v1.0.20190410  GCC6.3.0",
  "DerivedVendorReportedEchoSpacing": 0.000930018,
  "DeviceSerialNumber": "67014",
  "DiffusionScheme": "Monopolar",
  "DwellTime": 3.9e-06,
  "EchoTime": 0.103,
  "EchoTrainLength": 38,
  "EffectiveEchoSpacing": 0.000465009,
  "FlipAngle": 90,
  "ImageOrientationPatientDICOM": [1, 1.57277e-05, 0.000334653, 5.33885e-08, 0.99889, -0.0471043],
  "ImageType": [
    "ORIGINAL",
    "PRIMARY",
    "DIFFUSION",
    "NONE",
    "ND",
    "NORM",
    "MOSAIC"
],
  "ImagingFrequency": 123.252,
  "InPlanePhaseEncodingDirectionDICOM": "COL",
  "InstitutionAddress": "Rue_du_Bugnon_21_Lausanne_District_CH_1011",
  "InstitutionName": "Radiologie_CHUV",
  "InstitutionalDepartmentName": "Department",
  "MRAcquisitionType": "2D",
  "MagneticFieldStrength": 3,
  "Manufacturer": "Siemens",
  "ManufacturersModelName": "Prisma_fit",
  "Modality": "MR",
  "ParallelReductionFactorInPlane": 2,
  "PartialFourier": 0.75,
  "PatientPosition": "HFS",
  "PercentPhaseFOV": 100,
  "PhaseEncodingDirection": "j-",
  "PhaseEncodingSteps": 76,
  "PhaseResolution": 1,
  "PixelBandwidth": 1335,
  "ProcedureStepDescription": "RESEARCH_Patric",
  "ProtocolName": "DSI_603_q4_half_tra_STRICT",
  "PulseSequenceDetails": "%SiemensSeq%_ep2d_diff",
  "ReceiveCoilActiveElements": "HEA;HEP",
  "ReceiveCoilName": "Head_32",
  "ReconMatrixPE": 96,
  "RefLinesPE": 28,
  "RepetitionTime": 5.9,
  "SAR": 0.171722,
  "ScanOptions": "PFP_FS",
  "ScanningSequence": "EP",
  "SequenceName": "_ep_b0",
  "SequenceVariant": "SK_SP",
  "SeriesDescription": "DSI_603_q4_half_tra_STRICT",
  "SeriesNumber": 7,
  "ShimSetting": [8234, -5623, -5986, 530, 42, -115, 164, 29],
  "SliceThickness": 3,
  "SliceTiming": [2.94, 0, 3.095, 0.155, 3.25, 0.31, 3.405, 0.465, 3.56, 0.62, 3.715, 0.775, 3.87, 0.93, 4.025, 1.085, 4.1775, 1.2375, 4.3325, 1.3925, 4.4875, 1.5475, 4.6425, 1.7025, 4.7975, 1.8575, 4.9525, 2.0125, 5.1075, 2.1675, 5.2625, 2.3225, 5.4175, 2.4775, 5.57, 2.6325, 5.725, 2.785],
  "SoftwareVersions": "syngo_MR_E11",
  "SpacingBetweenSlices": 3,
  "StationName": "MRAWP67014",
  "TotalReadoutTime": 0.0441759,
  "TxRefAmp": 287.338,
  "dcmmeta_affine": [
    [-2.2083330154418945, 1.178995390205273e-07, 0.0010050665587186813, 106.89107513427734],
    [-3.473192555247806e-05, 2.2058818340301514, -0.14131295680999756, -93.30978393554688],
    [0.0007390249520540237, 0.10402204096317291, 2.9966697692871094, -23.406702041625977],
    [0.0, 0.0, 0.0, 1.0]
],
  "dcmmeta_reorient_transform": [
    [0.0, -1.0, 0.0, 95.0],
    [1.0, 0.0, 0.0, 0.0],
    [0.0, 0.0, 1.0, 0.0],
    [0.0, 0.0, 0.0, 1.0]
],
  "dcmmeta_shape": [96, 96, 38, 129],
  "dcmmeta_slice_dim": 2,
  "dcmmeta_version": 0.6,
  "global": {
    "const": {
      "AcquisitionMatrix": [96, 0, 0, 96],
      "AngioFlag": "N",
      "BitsAllocated": 16,
      "BitsStored": 12,
      "BodyPartExamined": "BRAIN",
      "Columns": 672,
      "ConfidentialityCode": "N",
      "EchoNumbers": 1,
      "EchoTime": 103.0,
      "EchoTrainLength": 38,
      "FlipAngle": 90.0,
      "HighBit": 11,
      "ImageOrientationPatient": [0.99999994388006, 1.572766431e-05, 0.00033465281994, 5.3388472e-08, 0.99888997527816, -0.0471043234617],
      "ImagePositionPatient": [-742.89106333237, -751.55300754179, 16.220901374147],
      "ImageType": [
        "ORIGINAL",
        "PRIMARY",
        "DIFFUSION",
        "NONE",
        "ND",
        "NORM",
        "MOSAIC"
],
      "ImagedNucleus": "1H",
      "ImagingFrequency": 123.251545,
      "InPlanePhaseEncodingDirection": "COL",
      "MRAcquisitionType": "2D",
      "MagneticFieldStrength": 3.0,
      "Manufacturer": "SIEMENS",
      "ManufacturerModelName": "Prisma_fit",
      "ModalitiesInStudy": "MR",
      "Modality": "MR",
      "NumberOfAverages": 1.0,
      "NumberOfPhaseEncodingSteps": 76,
      "NumberOfStudyRelatedInstances": 746,
      "PercentPhaseFieldOfView": 100.0,
      "PercentSampling": 100.0,
      "PerformedProcedureStepStartTime": "154647.565000",
      "PhotometricInterpretation": "MONOCHROME2",
      "PixelBandwidth": 1335.0,
      "PixelRepresentation": 0,
      "PixelSpacing": [2.2083332538605, 2.2083332538605],
      "ProtocolName": "DSI_603_q4_half_tra_STRICT",
      "RepetitionTime": 5900.0,
      "Rows": 672,
      "SAR": 0.17172242013475,
      "SamplesPerPixel": 1,
      "ScanOptions": [
        "PFP",
        "FS"
],
      "ScanningSequence": "EP",
      "SequenceVariant": [
        "SK",
        "SP"
],
      "SeriesDescription": "DSI_603_q4_half_tra_STRICT",
      "SeriesNumber": 7,
      "SeriesTime": "160518.434000",
      "SliceLocation": -18.949614139783,
      "SliceThickness": 3.0,
      "SmallestImagePixelValue": 0,
      "SoftwareVersions": "syngo MR E11",
      "SpacingBetweenSlices": 2.9999999085141,
      "SpecificCharacterSet": "ISO_IR 100",
      "StudyID": "1",
      "StudyTime": "154647.501000",
      "TransmitCoilName": "Body",
      "VariableFlipAngleFlag": "N",
      "WindowCenterWidthExplanation": "Algo1",
      "dBdt": 0.0},
    "slices": {}
  },
  "time": {
    "samples": {
      "AcquisitionNumber": [1, 2, 3, 4, 5, 6, 7, 8, 9, 10, 11, 12, 13, 14, 15, 16, 17, 18, 19, 20, 21, 22, 23, 24, 25, 26, 27, 28, 29, 30, 31, 32, 33, 34, 35, 36, 37, 38, 39, 40, 41, 42, 43, 44, 45, 46, 47, 48, 49, 50, 51, 52, 53, 54, 55, 56, 57, 58, 59, 60, 61, 62, 63, 64, 65, 66, 67, 68, 69, 70, 71, 72, 73, 74, 75, 76, 77, 78, 79, 80, 81, 82, 83, 84, 85, 86, 87, 88, 89, 90, 91, 92, 93, 94, 95, 96, 97, 98, 99, 100, 101, 102, 103, 104, 105, 106, 107, 108, 109, 110, 111, 112, 113, 114, 115, 116, 117, 118, 119, 120, 121, 122, 123, 124, 125, 126, 127, 128, 129],
      "AcquisitionTime": ["160316.967500", "160322.867500", "160328.767500", "160334.667500", "160340.567500", "160346.467500", "160352.367500", "160358.267500", "160404.167500", "160410.067500", "160415.967500", "160421.867500", "160427.767500", "160433.667500", "160439.567500", "160445.467500", "160451.367500", "160457.267500", "160503.167500", "160509.067500", "160514.967500", "160520.867500", "160526.767500", "160532.667500", "160538.567500", "160544.467500", "160550.367500", "160556.267500", "160602.167500", "160608.067500", "160613.967500", "160619.867500", "160625.767500", "160631.667500", "160637.567500", "160643.467500", "160649.367500", "160655.267500", "160701.167500", "160707.067500", "160712.967500", "160718.867500", "160724.767500", "160730.667500", "160736.567500", "160742.467500", "160748.367500", "160754.267500", "160800.167500", "160806.067500", "160811.967500", "160817.867500", "160823.767500", "160829.667500", "160835.567500", "160841.467500", "160847.367500", "160853.267500", "160859.167500", "160905.067500", "160910.967500", "160916.867500", "160922.767500", "160928.667500", "160934.567500", "160940.467500", "160946.367500", "160952.267500", "160958.167500", "161004.067500", "161009.967500", "161015.867500", "161021.767500", "161027.667500", "161033.567500", "161039.467500", "161045.367500", "161051.267500", "161057.167500", "161103.067500", "161108.967500", "161114.867500", "161120.767500", "161126.667500", "161132.567500", "161138.467500", "161144.367500", "161150.267500", "161156.167500", "161202.067500", "161207.967500", "161213.867500", "161219.767500", "161225.667500", "161231.567500", "161237.467500", "161243.367500", "161249.267500", "161255.167500", "161301.067500", "161306.967500", "161312.867500", "161318.767500", "161324.667500", "161330.567500", "161336.467500", "161342.367500", "161348.267500", "161354.167500", "161400.067500", "161405.967500", "161411.867500", "161417.767500", "161423.667500", "161429.567500", "161435.467500", "161441.367500", "161447.267500", "161453.167500", "161459.067500", "161504.967500", "161510.867500", "161516.767500", "161522.667500", "161528.567500", "161534.467500", "161540.367500", "161546.267500", "161552.167500"],
      "ContentTime": ["160518.437000", "160518.441000", "160518.450000", "160518.453000", "160518.455000", "160518.458000", "160518.461000", "160518.464000", "160518.467000", "160518.470000", "160518.472000", "160518.475000", "160518.478000", "160518.481000", "160518.484000", "160518.486000", "160518.489000", "160518.492000", "160518.495000", "160518.498000", "160518.501000", "160718.433000", "160718.436000", "160718.443000", "160718.446000", "160718.449000", "160718.452000", "160718.455000", "160718.457000", "160718.460000", "160718.463000", "160718.466000", "160718.469000", "160718.472000", "160718.475000", "160718.477000", "160718.480000", "160718.483000", "160718.486000", "160718.489000", "160718.492000", "160918.433000", "160918.436000", "160918.439000", "160918.442000", "160918.445000", "160918.447000", "160918.450000", "160918.453000", "160918.464000", "160918.467000", "160918.470000", "160918.473000", "160918.476000", "160918.478000", "160918.481000", "160918.484000", "160918.487000", "160918.490000", "160918.493000", "160918.495000", "161018.434000", "161018.437000", "161018.440000", "161018.443000", "161018.445000", "161018.448000", "161018.451000", "161018.454000", "161018.457000", "161018.460000", "161218.433000", "161218.436000", "161218.439000", "161218.442000", "161218.445000", "161218.447000", "161218.450000", "161218.453000", "161218.456000", "161218.459000", "161218.462000", "161218.465000", "161218.467000", "161218.470000", "161218.473000", "161218.476000", "161218.479000", "161218.482000", "161218.484000", "161218.487000", "161218.490000", "161418.433000", "161418.436000", "161418.451000", "161418.454000", "161418.457000", "161418.460000", "161418.462000", "161418.465000", "161418.468000", "161418.471000", "161418.474000", "161418.477000", "161418.479000", "161418.482000", "161418.485000", "161418.488000", "161418.500000", "161418.503000", "161418.506000", "161418.509000", "161556.639000", "161556.642000", "161556.645000", "161556.648000", "161556.650000", "161556.653000", "161556.656000", "161556.659000", "161556.663000", "161556.666000", "161556.669000", "161556.673000", "161556.676000", "161556.679000", "161556.682000", "161556.685000", "161556.688000"],
      "InstanceCreationTime": ["160518.437000", "160518.441000", "160518.450000", "160518.453000", "160518.455000", "160518.458000", "160518.461000", "160518.464000", "160518.467000", "160518.470000", "160518.472000", "160518.475000", "160518.478000", "160518.481000", "160518.484000", "160518.486000", "160518.489000", "160518.492000", "160518.495000", "160518.498000", "160518.501000", "160718.433000", "160718.436000", "160718.443000", "160718.446000", "160718.449000", "160718.452000", "160718.455000", "160718.457000", "160718.460000", "160718.463000", "160718.466000", "160718.469000", "160718.472000", "160718.475000", "160718.477000", "160718.480000", "160718.483000", "160718.486000", "160718.489000", "160718.492000", "160918.433000", "160918.436000", "160918.439000", "160918.442000", "160918.445000", "160918.447000", "160918.450000", "160918.453000", "160918.464000", "160918.467000", "160918.470000", "160918.473000", "160918.476000", "160918.478000", "160918.481000", "160918.484000", "160918.487000", "160918.490000", "160918.493000", "160918.495000", "161018.434000", "161018.437000", "161018.440000", "161018.443000", "161018.445000", "161018.448000", "161018.451000", "161018.454000", "161018.457000", "161018.460000", "161218.433000", "161218.436000", "161218.439000", "161218.442000", "161218.445000", "161218.447000", "161218.450000", "161218.453000", "161218.456000", "161218.459000", "161218.462000", "161218.465000", "161218.467000", "161218.470000", "161218.473000", "161218.476000", "161218.479000", "161218.482000", "161218.484000", "161218.487000", "161218.490000", "161418.433000", "161418.436000", "161418.451000", "161418.454000", "161418.457000", "161418.460000", "161418.462000", "161418.465000", "161418.468000", "161418.471000", "161418.474000", "161418.477000", "161418.479000", "161418.482000", "161418.485000", "161418.488000", "161418.500000", "161418.503000", "161418.506000", "161418.509000", "161556.639000", "161556.642000", "161556.645000", "161556.648000", "161556.650000", "161556.653000", "161556.656000", "161556.659000", "161556.663000", "161556.666000", "161556.669000", "161556.673000", "161556.676000", "161556.679000", "161556.682000", "161556.685000", "161556.688000"],
      "InstanceNumber": [1, 2, 3, 4, 5, 6, 7, 8, 9, 10, 11, 12, 13, 14, 15, 16, 17, 18, 19, 20, 21, 22, 23, 24, 25, 26, 27, 28, 29, 30, 31, 32, 33, 34, 35, 36, 37, 38, 39, 40, 41, 42, 43, 44, 45, 46, 47, 48, 49, 50, 51, 52, 53, 54, 55, 56, 57, 58, 59, 60, 61, 62, 63, 64, 65, 66, 67, 68, 69, 70, 71, 72, 73, 74, 75, 76, 77, 78, 79, 80, 81, 82, 83, 84, 85, 86, 87, 88, 89, 90, 91, 92, 93, 94, 95, 96, 97, 98, 99, 100, 101, 102, 103, 104, 105, 106, 107, 108, 109, 110, 111, 112, 113, 114, 115, 116, 117, 118, 119, 120, 121, 122, 123, 124, 125, 126, 127, 128, 129],
      "LargestImagePixelValue": [2503, 742, 709, 803, 468, 443, 474, 418, 465, 422, 343, 301, 304, 290, 218, 220, 229, 193, 190, 201, 189, 175, 186, 186, 188, 199, 171, 162, 182, 178, 185, 180, 154, 178, 165, 215, 158, 192, 174, 175, 210, 159, 146, 138, 206, 157, 147, 176, 138, 173, 142, 126, 172, 141, 139, 124, 177, 179, 158, 186, 144, 183, 146, 143, 170, 133, 146, 136, 149, 166, 173, 145, 143, 162, 137, 166, 164, 124, 141, 151, 169, 128, 134, 134, 156, 196, 133, 163, 169, 186, 128, 127, 139, 130, 127, 124, 170, 130, 147, 122, 115, 129, 132, 124, 161, 122, 164, 104, 131, 121, 138, 115, 150, 130, 128, 104, 165, 154, 174, 132, 121, 133, 125, 124, 168, 143, 122, 129, 164],
      "SequenceName": [
        "*ep_b0",
        "*ep_b500#2",
        "*ep_b500#3",
        "*ep_b500#4",
        "*ep_b1000#5",
        "*ep_b1000#6",
        "*ep_b1000#7",
        "*ep_b1000#8",
        "*ep_b1000#9",
        "*ep_b1000#10",
        "*ep_b1500#11",
        "*ep_b1500#12",
        "*ep_b1500#13",
        "*ep_b1500#14",
        "*ep_b2000#15",
        "*ep_b2000#16",
        "*ep_b2000#17",
        "*ep_b2500#18",
        "*ep_b2500#19",
        "*ep_b2500#20",
        "*ep_b2500#21",
        "*ep_b2500#22",
        "*ep_b2500#23",
        "*ep_b2500#24",
        "*ep_b2500#25",
        "*ep_b2500#26",
        "*ep_b2500#27",
        "*ep_b2500#28",
        "*ep_b2500#29",
        "*ep_b3000#30",
        "*ep_b3000#31",
        "*ep_b3000#32",
        "*ep_b3000#33",
        "*ep_b3000#34",
        "*ep_b3000#35",
        "*ep_b3000#36",
        "*ep_b3000#37",
        "*ep_b3000#38",
        "*ep_b3000#39",
        "*ep_b3000#40",
        "*ep_b3000#41",
        "*ep_b4000#42",
        "*ep_b4000#43",
        "*ep_b4000#44",
        "*ep_b4000#45",
        "*ep_b4000#46",
        "*ep_b4000#47",
        "*ep_b4500#48",
        "*ep_b4500#49",
        "*ep_b4500#50",
        "*ep_b4500#51",
        "*ep_b4500#52",
        "*ep_b4500#53",
        "*ep_b4500#54",
        "*ep_b4500#55",
        "*ep_b4500#56",
        "*ep_b4500#57",
        "*ep_b4500#58",
        "*ep_b4500#59",
        "*ep_b4500#60",
        "*ep_b4500#61",
        "*ep_b4500#62",
        "*ep_b5000#63",
        "*ep_b5000#64",
        "*ep_b5000#65",
        "*ep_b5000#66",
        "*ep_b5000#67",
        "*ep_b5000#68",
        "*ep_b5000#69",
        "*ep_b5000#70",
        "*ep_b5000#71",
        "*ep_b5000#72",
        "*ep_b5000#73",
        "*ep_b5000#74",
        "*ep_b5500#75",
        "*ep_b5500#76",
        "*ep_b5500#77",
        "*ep_b5500#78",
        "*ep_b5500#79",
        "*ep_b5500#80",
        "*ep_b5500#81",
        "*ep_b5500#82",
        "*ep_b5500#83",
        "*ep_b5500#84",
        "*ep_b5500#85",
        "*ep_b5500#86",
        "*ep_b6000#87",
        "*ep_b6000#88",
        "*ep_b6000#89",
        "*ep_b6000#90",
        "*ep_b6500#91",
        "*ep_b6500#92",
        "*ep_b6500#93",
        "*ep_b6500#94",
        "*ep_b6500#95",
        "*ep_b6500#96",
        "*ep_b6500#97",
        "*ep_b6500#98",
        "*ep_b6500#99",
        "*ep_b6500#100",
        "*ep_b6500#101",
        "*ep_b6500#102",
        "*ep_b7000#103",
        "*ep_b7000#104",
        "*ep_b7000#105",
        "*ep_b7000#106",
        "*ep_b7000#107",
        "*ep_b7000#108",
        "*ep_b7000#109",
        "*ep_b7000#110",
        "*ep_b7000#111",
        "*ep_b7000#112",
        "*ep_b7000#113",
        "*ep_b7000#114",
        "*ep_b7000#115",
        "*ep_b7000#116",
        "*ep_b7000#117",
        "*ep_b7000#118",
        "*ep_b7000#119",
        "*ep_b7000#120",
        "*ep_b7000#121",
        "*ep_b7000#122",
        "*ep_b7000#123",
        "*ep_b7000#124",
        "*ep_b7000#125",
        "*ep_b7000#126",
        "*ep_b8000#127",
        "*ep_b8000#128",
        "*ep_b8000#129"
],
      "WindowCenter": [389.0, 177.0, 181.0, 180.0, 124.0, 128.0, 128.0, 124.0, 126.0, 127.0, 102.0, 99.0, 102.0, 99.0, 82.0, 84.0, 84.0, 71.0, 73.0, 70.0, 72.0, 72.0, 73.0, 70.0, 69.0, 71.0, 72.0, 70.0, 72.0, 65.0, 63.0, 64.0, 65.0, 63.0, 61.0, 65.0, 65.0, 63.0, 61.0, 65.0, 64.0, 52.0, 54.0, 54.0, 52.0, 53.0, 53.0, 51.0, 50.0, 51.0, 48.0, 49.0, 49.0, 49.0, 50.0, 48.0, 49.0, 51.0, 52.0, 50.0, 48.0, 53.0, 47.0, 49.0, 48.0, 48.0, 47.0, 48.0, 46.0, 47.0, 48.0, 47.0, 48.0, 49.0, 46.0, 47.0, 47.0, 45.0, 45.0, 44.0, 47.0, 45.0, 44.0, 43.0, 48.0, 48.0, 44.0, 43.0, 46.0, 44.0, 40.0, 43.0, 41.0, 43.0, 41.0, 42.0, 42.0, 41.0, 42.0, 41.0, 41.0, 42.0, 42.0, 41.0, 43.0, 40.0, 43.0, 39.0, 41.0, 39.0, 42.0, 41.0, 40.0, 39.0, 40.0, 39.0, 40.0, 41.0, 43.0, 42.0, 39.0, 40.0, 40.0, 41.0, 42.0, 41.0, 38.0, 39.0, 43.0],
      "WindowWidth": [873.0, 417.0, 424.0, 423.0, 307.0, 314.0, 315.0, 307.0, 310.0, 312.0, 260.0, 252.0, 259.0, 251.0, 215.0, 220.0, 221.0, 189.0, 195.0, 187.0, 192.0, 192.0, 194.0, 187.0, 184.0, 189.0, 191.0, 189.0, 193.0, 175.0, 171.0, 173.0, 175.0, 169.0, 165.0, 175.0, 174.0, 169.0, 166.0, 176.0, 172.0, 143.0, 148.0, 148.0, 143.0, 145.0, 145.0, 141.0, 139.0, 140.0, 133.0, 136.0, 134.0, 136.0, 140.0, 134.0, 134.0, 141.0, 142.0, 137.0, 133.0, 147.0, 131.0, 135.0, 132.0, 133.0, 133.0, 133.0, 128.0, 130.0, 133.0, 130.0, 134.0, 137.0, 128.0, 130.0, 130.0, 125.0, 124.0, 123.0, 130.0, 124.0, 124.0, 121.0, 133.0, 133.0, 122.0, 119.0, 126.0, 121.0, 113.0, 119.0, 114.0, 120.0, 116.0, 117.0, 117.0, 113.0, 117.0, 115.0, 115.0, 117.0, 117.0, 116.0, 119.0, 111.0, 119.0, 109.0, 113.0, 107.0, 116.0, 113.0, 111.0, 109.0, 112.0, 109.0, 112.0, 114.0, 120.0, 117.0, 110.0, 112.0, 113.0, 115.0, 117.0, 113.0, 106.0, 108.0, 120.0]
    },
    "slices": {}
  }
}