{
  "AcquisitionMatrixPE": 94,
  "AcquisitionNumber": 1,
  "AcquisitionTime": "14:48:30.535000",
  "BandwidthPerPixelPhaseEncode": 18.997,
  "BaseResolution": 94,
  "BodyPartExamined": "BRAIN",
  "ConsistencyInfo": "N4_VE11C_LATEST_20160120",
  "ConversionSoftware": "dcm2niix",
  "ConversionSoftwareVersion": "v1.0.20190410  GCC6.3.0",
  "DerivedVendorReportedEchoSpacing": 0.000559999,
  "DeviceSerialNumber": "67014",
  "DwellTime": 2.2e-06,
  "EchoTime": 0.033,
  "EchoTrainLength": 94,
  "EffectiveEchoSpacing": 0.000559999,
  "FlipAngle": 47,
  "ImageOrientationPatientDICOM": [1, 0, 0, 0, 1, 0],
  "ImageType": [
    "ORIGINAL",
    "PRIMARY",
    "M",
    "ND",
    "MOSAIC"
],
  "ImagingFrequency": 123.252,
  "InPlanePhaseEncodingDirectionDICOM": "COL",
  "InstitutionAddress": "Rue_du_Bugnon_21_Lausanne_District_CH_1011",
  "InstitutionName": "Radiologie_CHUV",
  "InstitutionalDepartmentName": "Department",
  "MRAcquisitionType": "2D",
  "MagneticFieldStrength": 3,
  "Manufacturer": "Siemens",
  "ManufacturersModelName": "Prisma_fit",
  "Modality": "MR",
  "MultibandAccelerationFactor": 8,
  "PartialFourier": 1,
  "PatientPosition": "HFS",
  "PercentPhaseFOV": 100,
  "PhaseEncodingDirection": "j-",
  "PhaseEncodingSteps": 94,
  "PhaseResolution": 1,
  "PixelBandwidth": 2420,
  "ProcedureStepDescription": "RESEARCH_Patric",
  "ProtocolName": "ep2d_bold_moco_p1_s8_REST",
  "PulseSequenceDetails": "%SiemensSeq%_ep2d_bold",
  "ReceiveCoilActiveElements": "HEA;HEP",
  "ReceiveCoilName": "Head_32",
  "ReconMatrixPE": 94,
  "RefLinesPE": 28,
  "RepetitionTime": 0.5,
  "SAR": 0.0824783,
  "ScanOptions": "FS",
  "ScanningSequence": "EP",
  "SequenceName": "_epfid2d1_94",
  "SequenceVariant": "SK",
  "SeriesDescription": "ep2d_bold_moco_p1_s8_REST",
  "SeriesNumber": 8,
  "ShimSetting": [8223, -5579, -6004, 577, 17, 3, 107, 57],
  "SliceThickness": 2.6,
  "SliceTiming": [0.32, 0, 0.24, 0.16, 0.4, 0.08, 0.32, 0, 0.24, 0.16, 0.4, 0.08, 0.32, 0, 0.24, 0.16, 0.4, 0.08, 0.32, 0, 0.24, 0.16, 0.4, 0.08, 0.32, 0, 0.24, 0.16, 0.4, 0.08, 0.32, 0, 0.24, 0.16, 0.4, 0.08, 0.32, 0, 0.24, 0.16, 0.4, 0.08, 0.32, 0, 0.24, 0.16, 0.4, 0.08],
  "SoftwareVersions": "syngo_MR_E11",
  "SpacingBetweenSlices": 2.86,
  "StationName": "MRAWP67014",
  "TaskName": "rest",
  "TotalReadoutTime": 0.0520799,
  "TxRefAmp": 272.986,
  "dcmmeta_affine": [
    [-2.382978677749634, 0.0, 0.0, 112.60795593261719],
    [0.0, 2.382978677749634, 0.0, -96.35459899902344],
    [0.0, 0.0, 2.8600001335144043, -47.97475051879883],
    [0.0, 0.0, 0.0, 1.0]
],
  "dcmmeta_reorient_transform": [
    [0.0, -1.0, 0.0, 93.0],
    [1.0, 0.0, 0.0, 0.0],
    [0.0, 0.0, 1.0, 0.0],
    [0.0, 0.0, 0.0, 1.0]
],
  "dcmmeta_shape": [94, 94, 48, 720],
  "dcmmeta_slice_dim": 2,
  "dcmmeta_version": 0.6,
  "global": {
    "const": {
      "AcquisitionMatrix": [94, 0, 0, 94],
      "AngioFlag": "N",
      "BitsAllocated": 16,
      "BitsStored": 12,
      "BodyPartExamined": "BRAIN",
      "Columns": 658,
      "ConfidentialityCode": "N",
      "EchoNumbers": 1,
      "EchoTime": 33.0,
      "EchoTrainLength": 94,
      "FlipAngle": 47.0,
      "HighBit": 11,
      "ImageOrientationPatient": [1.0, 0.0, 0.0, 0.0, 1.0, 0.0],
      "ImagePositionPatient": [-784.60794568062, -797.2624065876, -47.974750518799],
      "ImageType": [
        "ORIGINAL",
        "PRIMARY",
        "M",
        "ND",
        "MOSAIC"
],
      "ImagedNucleus": "1H",
      "ImagingFrequency": 123.251565,
      "InPlanePhaseEncodingDirection": "COL",
      "MRAcquisitionType": "2D",
      "MagneticFieldStrength": 3.0,
      "Manufacturer": "SIEMENS",
      "ManufacturerModelName": "Prisma_fit",
      "ModalitiesInStudy": "MR",
      "Modality": "MR",
      "NumberOfAverages": 1.0,
      "NumberOfPhaseEncodingSteps": 94,
      "NumberOfStudyRelatedInstances": 1096,
      "PercentPhaseFieldOfView": 100.0,
      "PercentSampling": 100.0,
      "PerformedProcedureStepStartTime": "143605.017000",
      "PhotometricInterpretation": "MONOCHROME2",
      "PixelBandwidth": 2420.0,
      "PixelRepresentation": 0,
      "PixelSpacing": [2.3829786777496, 2.3829786777496],
      "ProtocolName": "ep2d_bold_moco_p1_s8_REST",
      "RepetitionTime": 500.0,
      "Rows": 658,
      "SAR": 0.08247828980887,
      "SamplesPerPixel": 1,
      "ScanOptions": "FS",
      "ScanningSequence": "EP",
      "SequenceName": "*epfid2d1_94",
      "SequenceVariant": "SK",
      "SeriesDescription": "ep2d_bold_moco_p1_s8_REST",
      "SeriesNumber": 8,
      "SeriesTime": "144859.546000",
      "SliceLocation": -47.974750518799,
      "SliceThickness": 2.5999999046326,
      "SmallestImagePixelValue": 0,
      "SoftwareVersions": "syngo MR E11",
      "SpacingBetweenSlices": 2.8600000422052,
      "SpecificCharacterSet": "ISO_IR 100",
      "StudyID": "1",
      "StudyTime": "143604.939000",
      "TransmitCoilName": "Body",
      "VariableFlipAngleFlag": "N",
      "WindowCenterWidthExplanation": "Algo1",
      "dBdt": 0.0},
    "slices": {}
  },
  "time": {
    "samples": {
      "AcquisitionNumber": [1, 2, 3, 4, 5, 6, 7, 8, 9, 10, 11, 12, 13, 14, 15, 16, 17, 18, 19, 20, 21, 22, 23, 24, 25, 26, 27, 28, 29, 30, 31, 32, 33, 34, 35, 36, 37, 38, 39, 40, 41, 42, 43, 44, 45, 46, 47, 48, 49, 50, 51, 52, 53, 54, 55, 56, 57, 58, 59, 60, 61, 62, 63, 64, 65, 66, 67, 68, 69, 70, 71, 72, 73, 74, 75, 76, 77, 78, 79, 80, 81, 82, 83, 84, 85, 86, 87, 88, 89, 90, 91, 92, 93, 94, 95, 96, 97, 98, 99, 100, 101, 102, 103, 104, 105, 106, 107, 108, 109, 110, 111, 112, 113, 114, 115, 116, 117, 118, 119, 120, 121, 122, 123, 124, 125, 126, 127, 128, 129, 130, 131, 132, 133, 134, 135, 136, 137, 138, 139, 140, 141, 142, 143, 144, 145, 146, 147, 148, 149, 150, 151, 152, 153, 154, 155, 156, 157, 158, 159, 160, 161, 162, 163, 164, 165, 166, 167, 168, 169, 170, 171, 172, 173, 174, 175, 176, 177, 178, 179, 180, 181, 182, 183, 184, 185, 186, 187, 188, 189, 190, 191, 192, 193, 194, 195, 196, 197, 198, 199, 200, 201, 202, 203, 204, 205, 206, 207, 208, 209, 210, 211, 212, 213, 214, 215, 216, 217, 218, 219, 220, 221, 222, 223, 224, 225, 226, 227, 228, 229, 230, 231, 232, 233, 234, 235, 236, 237, 238, 239, 240, 241, 242, 243, 244, 245, 246, 247, 248, 249, 250, 251, 252, 253, 254, 255, 256, 257, 258, 259, 260, 261, 262, 263, 264, 265, 266, 267, 268, 269, 270, 271, 272, 273, 274, 275, 276, 277, 278, 279, 280, 281, 282, 283, 284, 285, 286, 287, 288, 289, 290, 291, 292, 293, 294, 295, 296, 297, 298, 299, 300, 301, 302, 303, 304, 305, 306, 307, 308, 309, 310, 311, 312, 313, 314, 315, 316, 317, 318, 319, 320, 321, 322, 323, 324, 325, 326, 327, 328, 329, 330, 331, 332, 333, 334, 335, 336, 337, 338, 339, 340, 341, 342, 343, 344, 345, 346, 347, 348, 349, 350, 351, 352, 353, 354, 355, 356, 357, 358, 359, 360, 361, 362, 363, 364, 365, 366, 367, 368, 369, 370, 371, 372, 373, 374, 375, 376, 377, 378, 379, 380, 381, 382, 383, 384, 385, 386, 387, 388, 389, 390, 391, 392, 393, 394, 395, 396, 397, 398, 399, 400, 401, 402, 403, 404, 405, 406, 407, 408, 409, 410, 411, 412, 413, 414, 415, 416, 417, 418, 419, 420, 421, 422, 423, 424, 425, 426, 427, 428, 429, 430, 431, 432, 433, 434, 435, 436, 437, 438, 439, 440, 441, 442, 443, 444, 445, 446, 447, 448, 449, 450, 451, 452, 453, 454, 455, 456, 457, 458, 459, 460, 461, 462, 463, 464, 465, 466, 467, 468, 469, 470, 471, 472, 473, 474, 475, 476, 477, 478, 479, 480, 481, 482, 483, 484, 485, 486, 487, 488, 489, 490, 491, 492, 493, 494, 495, 496, 497, 498, 499, 500, 501, 502, 503, 504, 505, 506, 507, 508, 509, 510, 511, 512, 513, 514, 515, 516, 517, 518, 519, 520, 521, 522, 523, 524, 525, 526, 527, 528, 529, 530, 531, 532, 533, 534, 535, 536, 537, 538, 539, 540, 541, 542, 543, 544, 545, 546, 547, 548, 549, 550, 551, 552, 553, 554, 555, 556, 557, 558, 559, 560, 561, 562, 563, 564, 565, 566, 567, 568, 569, 570, 571, 572, 573, 574, 575, 576, 577, 578, 579, 580, 581, 582, 583, 584, 585, 586, 587, 588, 589, 590, 591, 592, 593, 594, 595, 596, 597, 598, 599, 600, 601, 602, 603, 604, 605, 606, 607, 608, 609, 610, 611, 612, 613, 614, 615, 616, 617, 618, 619, 620, 621, 622, 623, 624, 625, 626, 627, 628, 629, 630, 631, 632, 633, 634, 635, 636, 637, 638, 639, 640, 641, 642, 643, 644, 645, 646, 647, 648, 649, 650, 651, 652, 653, 654, 655, 656, 657, 658, 659, 660, 661, 662, 663, 664, 665, 666, 667, 668, 669, 670, 671, 672, 673, 674, 675, 676, 677, 678, 679, 680, 681, 682, 683, 684, 685, 686, 687, 688, 689, 690, 691, 692, 693, 694, 695, 696, 697, 698, 699, 700, 701, 702, 703, 704, 705, 706, 707, 708, 709, 710, 711, 712, 713, 714, 715, 716, 717, 718, 719, 720],
      "AcquisitionTime": ["144830.535000", "144831.035000", "144831.535000", "144832.035000", "144832.535000", "144833.035000", "144833.535000", "144834.035000", "144834.535000", "144835.035000", "144835.535000", "144836.035000", "144836.535000", "144837.035000", "144837.535000", "144838.035000", "144838.535000", "144839.035000", "144839.535000", "144840.035000", "144840.535000", "144841.035000", "144841.535000", "144842.035000", "144842.535000", "144843.035000", "144843.535000", "144844.035000", "144844.535000", "144845.035000", "144845.535000", "144846.035000", "144846.535000", "144847.035000", "144847.535000", "144848.035000", "144848.535000", "144849.035000", "144849.535000", "144850.035000", "144850.535000", "144851.035000", "144851.535000", "144852.035000", "144852.535000", "144853.035000", "144853.535000", "144854.035000", "144854.535000", "144855.035000", "144855.535000", "144856.035000", "144856.535000", "144857.035000", "144857.535000", "144858.035000", "144858.535000", "144859.035000", "144859.535000", "144900.035000", "144900.535000", "144901.035000", "144901.535000", "144902.035000", "144902.535000", "144903.035000", "144903.535000", "144904.035000", "144904.535000", "144905.035000", "144905.535000", "144906.035000", "144906.535000", "144907.035000", "144907.535000", "144908.035000", "144908.535000", "144909.035000", "144909.535000", "144910.035000", "144910.535000", "144911.035000", "144911.535000", "144912.035000", "144912.535000", "144913.035000", "144913.535000", "144914.035000", "144914.535000", "144915.035000", "144915.535000", "144916.035000", "144916.535000", "144917.035000", "144917.535000", "144918.035000", "144918.535000", "144919.035000", "144919.535000", "144920.035000", "144920.535000", "144921.035000", "144921.535000", "144922.035000", "144922.535000", "144923.035000", "144923.535000", "144924.035000", "144924.535000", "144925.035000", "144925.535000", "144926.035000", "144926.535000", "144927.035000", "144927.535000", "144928.035000", "144928.535000", "144929.035000", "144929.535000", "144930.035000", "144930.535000", "144931.035000", "144931.535000", "144932.035000", "144932.535000", "144933.035000", "144933.535000", "144934.035000", "144934.535000", "144935.035000", "144935.535000", "144936.035000", "144936.535000", "144937.035000", "144937.535000", "144938.035000", "144938.535000", "144939.035000", "144939.535000", "144940.035000", "144940.535000", "144941.035000", "144941.535000", "144942.035000", "144942.535000", "144943.035000", "144943.535000", "144944.035000", "144944.535000", "144945.035000", "144945.535000", "144946.035000", "144946.535000", "144947.035000", "144947.535000", "144948.035000", "144948.535000", "144949.035000", "144949.535000", "144950.035000", "144950.535000", "144951.035000", "144951.535000", "144952.035000", "144952.535000", "144953.035000", "144953.535000", "144954.035000", "144954.535000", "144955.035000", "144955.535000", "144956.035000", "144956.535000", "144957.035000", "144957.535000", "144958.035000", "144958.535000", "144959.035000", "144959.535000", "145000.035000", "145000.535000", "145001.035000", "145001.535000", "145002.035000", "145002.535000", "145003.035000", "145003.535000", "145004.035000", "145004.535000", "145005.035000", "145005.535000", "145006.035000", "145006.535000", "145007.035000", "145007.535000", "145008.035000", "145008.535000", "145009.035000", "145009.535000", "145010.035000", "145010.535000", "145011.035000", "145011.535000", "145012.035000", "145012.535000", "145013.035000", "145013.535000", "145014.035000", "145014.535000", "145015.035000", "145015.535000", "145016.035000", "145016.535000", "145017.035000", "145017.535000", "145018.035000", "145018.535000", "145019.035000", "145019.535000", "145020.035000", "145020.535000", "145021.035000", "145021.535000", "145022.035000", "145022.535000", "145023.035000", "145023.535000", "145024.035000", "145024.535000", "145025.035000", "145025.535000", "145026.035000", "145026.535000", "145027.035000", "145027.535000", "145028.035000", "145028.535000", "145029.035000", "145029.535000", "145030.035000", "145030.535000", "145031.035000", "145031.535000", "145032.035000", "145032.535000", "145033.035000", "145033.535000", "145034.035000", "145034.535000", "145035.035000", "145035.535000", "145036.035000", "145036.535000", "145037.035000", "145037.535000", "145038.035000", "145038.535000", "145039.035000", "145039.535000", "145040.035000", "145040.535000", "145041.035000", "145041.535000", "145042.035000", "145042.535000", "145043.035000", "145043.535000", "145044.035000", "145044.535000", "145045.035000", "145045.535000", "145046.035000", "145046.535000", "145047.035000", "145047.535000", "145048.035000", "145048.535000", "145049.035000", "145049.535000", "145050.035000", "145050.535000", "145051.035000", "145051.535000", "145052.035000", "145052.535000", "145053.035000", "145053.535000", "145054.035000", "145054.535000", "145055.035000", "145055.535000", "145056.035000", "145056.535000", "145057.035000", "145057.535000", "145058.035000", "145058.535000", "145059.035000", "145059.535000", "145100.035000", "145100.535000", "145101.035000", "145101.535000", "145102.035000", "145102.535000", "145103.035000", "145103.535000", "145104.035000", "145104.535000", "145105.035000", "145105.535000", "145106.035000", "145106.535000", "145107.035000", "145107.535000", "145108.035000", "145108.535000", "145109.035000", "145109.535000", "145110.035000", "145110.535000", "145111.035000", "145111.535000", "145112.035000", "145112.535000", "145113.035000", "145113.535000", "145114.035000", "145114.535000", "145115.035000", "145115.535000", "145116.035000", "145116.535000", "145117.035000", "145117.535000", "145118.035000", "145118.535000", "145119.035000", "145119.535000", "145120.035000", "145120.535000", "145121.035000", "145121.535000", "145122.035000", "145122.535000", "145123.035000", "145123.535000", "145124.035000", "145124.535000", "145125.035000", "145125.535000", "145126.035000", "145126.535000", "145127.035000", "145127.535000", "145128.035000", "145128.535000", "145129.035000", "145129.535000", "145130.035000", "145130.535000", "145131.035000", "145131.535000", "145132.035000", "145132.535000", "145133.035000", "145133.535000", "145134.035000", "145134.535000", "145135.035000", "145135.535000", "145136.035000", "145136.535000", "145137.035000", "145137.535000", "145138.035000", "145138.535000", "145139.035000", "145139.535000", "145140.035000", "145140.535000", "145141.035000", "145141.535000", "145142.035000", "145142.535000", "145143.035000", "145143.535000", "145144.035000", "145144.535000", "145145.035000", "145145.535000", "145146.035000", "145146.535000", "145147.035000", "145147.535000", "145148.035000", "145148.535000", "145149.035000", "145149.535000", "145150.035000", "145150.535000", "145151.035000", "145151.535000", "145152.035000", "145152.535000", "145153.035000", "145153.535000", "145154.035000", "145154.535000", "145155.035000", "145155.535000", "145156.035000", "145156.535000", "145157.035000", "145157.535000", "145158.035000", "145158.535000", "145159.035000", "145159.535000", "145200.035000", "145200.535000", "145201.035000", "145201.535000", "145202.035000", "145202.535000", "145203.035000", "145203.535000", "145204.035000", "145204.535000", "145205.035000", "145205.535000", "145206.035000", "145206.535000", "145207.035000", "145207.535000", "145208.035000", "145208.535000", "145209.035000", "145209.535000", "145210.035000", "145210.535000", "145211.035000", "145211.535000", "145212.035000", "145212.535000", "145213.035000", "145213.535000", "145214.035000", "145214.535000", "145215.035000", "145215.535000", "145216.035000", "145216.535000", "145217.035000", "145217.535000", "145218.035000", "145218.535000", "145219.035000", "145219.535000", "145220.035000", "145220.535000", "145221.035000", "145221.535000", "145222.035000", "145222.535000", "145223.035000", "145223.535000", "145224.035000", "145224.535000", "145225.035000", "145225.535000", "145226.035000", "145226.535000", "145227.035000", "145227.535000", "145228.035000", "145228.535000", "145229.035000", "145229.535000", "145230.035000", "145230.535000", "145231.035000", "145231.535000", "145232.035000", "145232.535000", "145233.035000", "145233.535000", "145234.035000", "145234.535000", "145235.035000", "145235.535000", "145236.035000", "145236.535000", "145237.035000", "145237.535000", "145238.035000", "145238.535000", "145239.035000", "145239.535000", "145240.035000", "145240.535000", "145241.035000", "145241.535000", "145242.035000", "145242.535000", "145243.035000", "145243.535000", "145244.035000", "145244.535000", "145245.035000", "145245.535000", "145246.035000", "145246.535000", "145247.035000", "145247.535000", "145248.035000", "145248.535000", "145249.035000", "145249.535000", "145250.035000", "145250.535000", "145251.035000", "145251.535000", "145252.035000", "145252.535000", "145253.035000", "145253.535000", "145254.035000", "145254.535000", "145255.035000", "145255.535000", "145256.035000", "145256.535000", "145257.035000", "145257.535000", "145258.035000", "145258.535000", "145259.035000", "145259.535000", "145300.035000", "145300.535000", "145301.035000", "145301.535000", "145302.035000", "145302.535000", "145303.035000", "145303.535000", "145304.035000", "145304.535000", "145305.035000", "145305.535000", "145306.035000", "145306.535000", "145307.035000", "145307.535000", "145308.035000", "145308.535000", "145309.035000", "145309.535000", "145310.035000", "145310.535000", "145311.035000", "145311.535000", "145312.035000", "145312.535000", "145313.035000", "145313.535000", "145314.035000", "145314.535000", "145315.035000", "145315.535000", "145316.035000", "145316.535000", "145317.035000", "145317.535000", "145318.035000", "145318.535000", "145319.035000", "145319.535000", "145320.035000", "145320.535000", "145321.035000", "145321.535000", "145322.035000", "145322.535000", "145323.035000", "145323.535000", "145324.035000", "145324.535000", "145325.035000", "145325.535000", "145326.035000", "145326.535000", "145327.035000", "145327.535000", "145328.035000", "145328.535000", "145329.035000", "145329.535000", "145330.035000", "145330.535000", "145331.035000", "145331.535000", "145332.035000", "145332.535000", "145333.035000", "145333.535000", "145334.035000", "145334.535000", "145335.035000", "145335.535000", "145336.035000", "145336.535000", "145337.035000", "145337.535000", "145338.035000", "145338.535000", "145339.035000", "145339.535000", "145340.035000", "145340.535000", "145341.035000", "145341.535000", "145342.035000", "145342.535000", "145343.035000", "145343.535000", "145344.035000", "145344.535000", "145345.035000", "145345.535000", "145346.035000", "145346.535000", "145347.035000", "145347.535000", "145348.035000", "145348.535000", "145349.035000", "145349.535000", "145350.035000", "145350.535000", "145351.035000", "145351.535000", "145352.035000", "145352.535000", "145353.035000", "145353.535000", "145354.035000", "145354.535000", "145355.035000", "145355.535000", "145356.035000", "145356.535000", "145357.035000", "145357.535000", "145358.035000", "145358.535000", "145359.035000", "145359.535000", "145400.035000", "145400.535000", "145401.035000", "145401.535000", "145402.035000", "145402.535000", "145403.035000", "145403.535000", "145404.035000", "145404.535000", "145405.035000", "145405.535000", "145406.035000", "145406.535000", "145407.035000", "145407.535000", "145408.035000", "145408.535000", "145409.035000", "145409.535000", "145410.035000", "145410.535000", "145411.035000", "145411.535000", "145412.035000", "145412.535000", "145413.035000", "145413.535000", "145414.035000", "145414.535000", "145415.035000", "145415.535000", "145416.035000", "145416.535000", "145417.035000", "145417.535000", "145418.035000", "145418.535000", "145419.035000", "145419.535000", "145420.035000", "145420.535000", "145421.035000", "145421.535000", "145422.035000", "145422.535000", "145423.035000", "145423.535000", "145424.035000", "145424.535000", "145425.035000", "145425.535000", "145426.035000", "145426.535000", "145427.035000", "145427.535000", "145428.035000", "145428.535000", "145429.035000", "145429.535000", "145430.035000"],
